# Wavelength | Molar Decadic Absorption Coefficient | Uncertainty 
#  (nm) |  (M$^{-1}$cm$^{-1}$) | (M$^{-1}$cm$^{-1}$)
200.00 1.140487e+00 2.476841e-01
201.00 1.174321e+00 2.578564e-01
202.00 1.209509e+00 2.682910e-01
203.00 1.247665e+00 2.790621e-01
204.00 1.290322e+00 2.907905e-01
205.00 1.335607e+00 3.030405e-01
206.00 1.389223e+00 3.170925e-01
207.00 1.445905e+00 3.319602e-01
208.00 1.509005e+00 3.483829e-01
209.00 1.576378e+00 3.656528e-01
210.00 1.643824e+00 3.830426e-01
211.00 1.712867e+00 4.009874e-01
212.00 1.774072e+00 4.170763e-01
213.00 1.833759e+00 4.326896e-01
214.00 1.886588e+00 4.468203e-01
215.00 1.925468e+00 4.575681e-01
216.00 1.948664e+00 4.650296e-01
217.00 1.963086e+00 4.695843e-01
218.00 1.962198e+00 4.703734e-01
219.00 1.946859e+00 4.675353e-01
220.00 1.917009e+00 4.611595e-01
221.00 1.876245e+00 4.519950e-01
222.00 1.825409e+00 4.403324e-01
223.00 1.765352e+00 4.263439e-01
224.00 1.696201e+00 4.101195e-01
225.00 1.627629e+00 3.939241e-01
226.00 1.554662e+00 3.765907e-01
227.00 1.475850e+00 3.578152e-01
228.00 1.395255e+00 3.386411e-01
229.00 1.319166e+00 3.204044e-01
230.00 1.243272e+00 3.021813e-01
231.00 1.168729e+00 2.842623e-01
232.00 1.102112e+00 2.683188e-01
233.00 1.034729e+00 2.520761e-01
234.00 9.651751e-01 2.353033e-01
235.00 9.031760e-01 2.203320e-01
236.00 8.440025e-01 2.060511e-01
237.00 7.890853e-01 1.927773e-01
238.00 7.368715e-01 1.801725e-01
239.00 6.899509e-01 1.688113e-01
240.00 6.464762e-01 1.582498e-01
241.00 6.042082e-01 1.479828e-01
242.00 5.651523e-01 1.385223e-01
243.00 5.302823e-01 1.302088e-01
244.00 4.963060e-01 1.219538e-01
245.00 4.647816e-01 1.142978e-01
246.00 4.348448e-01 1.068167e-01
247.00 4.098419e-01 1.007395e-01
248.00 3.861971e-01 9.499902e-02
249.00 3.651291e-01 8.988033e-02
250.00 3.464229e-01 8.534617e-02
251.00 3.290501e-01 8.113665e-02
252.00 3.141252e-01 7.751512e-02
253.00 2.999524e-01 7.407437e-02
254.00 2.873817e-01 7.103159e-02
255.00 2.766229e-01 6.843242e-02
256.00 2.667967e-01 6.605949e-02
257.00 2.577805e-01 6.388039e-02
258.00 2.492471e-01 6.182021e-02
259.00 2.416730e-01 5.997831e-02
260.00 2.347005e-01 5.829164e-02
261.00 2.237323e-01 5.524316e-02
262.00 2.171397e-01 5.364169e-02
263.00 2.113426e-01 5.222237e-02
264.00 2.050501e-01 5.068479e-02
265.00 1.988882e-01 4.918536e-02
266.00 1.931626e-01 4.777814e-02
267.00 1.876331e-01 4.643063e-02
268.00 1.816165e-01 4.495710e-02
269.00 1.757862e-01 4.352422e-02
270.00 1.701865e-01 4.214694e-02
271.00 1.642256e-01 4.068396e-02
272.00 1.583261e-01 3.924270e-02
273.00 1.528391e-01 3.788625e-02
274.00 1.469195e-01 3.642290e-02
275.00 1.409091e-01 3.494577e-02
276.00 1.351469e-01 3.352653e-02
277.00 1.296549e-01 3.216973e-02
278.00 1.239480e-01 3.075550e-02
279.00 1.181687e-01 2.932439e-02
280.00 1.127030e-01 2.797048e-02
281.00 1.073665e-01 2.665225e-02
282.00 1.018860e-01 2.530253e-02
283.00 9.687073e-02 2.405703e-02
284.00 9.197685e-02 2.284219e-02
285.00 8.691324e-02 2.159701e-02
286.00 8.244402e-02 2.048996e-02
287.00 7.804266e-02 1.940136e-02
288.00 7.384863e-02 1.835553e-02
289.00 6.979406e-02 1.735709e-02
290.00 6.620078e-02 1.646464e-02
291.00 6.248087e-02 1.554058e-02
292.00 5.904178e-02 1.469183e-02
293.00 5.584697e-02 1.389852e-02
294.00 5.285117e-02 1.315508e-02
295.00 4.991133e-02 1.243710e-02
296.00 4.724416e-02 1.177572e-02
297.00 4.485759e-02 1.119442e-02
298.00 4.255991e-02 1.062723e-02
299.00 4.062338e-02 1.015093e-02
300.00 3.888519e-02 9.723295e-03
301.00 3.735437e-02 9.349531e-03
302.00 3.589468e-02 8.998033e-03
303.00 3.477496e-02 8.718477e-03
304.00 3.370678e-02 8.455544e-03
305.00 3.278201e-02 8.231947e-03
306.00 3.197701e-02 8.116753e-03
307.00 3.130703e-02 7.949298e-03
308.00 3.075342e-02 7.832574e-03
309.00 3.035922e-02 7.722014e-03
310.00 3.000982e-02 7.670793e-03
311.00 2.975039e-02 7.574099e-03
312.00 2.951579e-02 7.513351e-03
313.00 2.935433e-02 7.506397e-03
314.00 2.924714e-02 7.464166e-03
315.00 2.916011e-02 7.473357e-03
316.00 2.908660e-02 7.456861e-03
317.00 2.905525e-02 7.467977e-03
318.00 2.896032e-02 7.439209e-03
319.00 2.895675e-02 7.416611e-03
320.00 2.890374e-02 7.451967e-03
321.00 2.871935e-02 7.400500e-03
322.00 2.865811e-02 7.415702e-03
323.00 2.854116e-02 7.361551e-03
324.00 2.842034e-02 7.361668e-03
325.00 2.824121e-02 7.315336e-03
326.00 2.803736e-02 7.252813e-03
327.00 2.781654e-02 7.213392e-03
328.00 2.754448e-02 7.143990e-03
329.00 2.722959e-02 7.086739e-03
330.00 2.688044e-02 7.007705e-03
331.00 2.651723e-02 6.941563e-03
332.00 2.611457e-02 6.882350e-03
333.00 2.567295e-02 6.704450e-03
334.00 2.517488e-02 6.639297e-03
335.00 2.465856e-02 6.523897e-03
336.00 2.416679e-02 6.396819e-03
337.00 2.362546e-02 6.324793e-03
338.00 2.304637e-02 6.159234e-03
339.00 2.247974e-02 6.061168e-03
340.00 2.188441e-02 5.941495e-03
341.00 2.125946e-02 5.768354e-03
342.00 2.061732e-02 5.613007e-03
343.00 1.995855e-02 5.531024e-03
344.00 1.929739e-02 5.297415e-03
345.00 1.864208e-02 5.165391e-03
346.00 1.794954e-02 5.082586e-03
347.00 1.724969e-02 4.950597e-03
348.00 1.655368e-02 4.784796e-03
349.00 1.583637e-02 4.614265e-03
350.00 1.517464e-02 4.450832e-03
351.00 1.452541e-02 4.375494e-03
352.00 1.386253e-02 4.238223e-03
353.00 1.321153e-02 4.105645e-03
354.00 1.258377e-02 3.976677e-03
355.00 1.195378e-02 3.815824e-03
356.00 1.136808e-02 3.663432e-03
357.00 1.081649e-02 3.656375e-03
358.00 1.028639e-02 3.707614e-03
359.00 9.766597e-03 3.444907e-03
360.00 9.321800e-03 3.584530e-03
